% This file was created by matlab2tikz v0.3.3.
% Copyright (c) 2008--2013, Nico Schl√∂mer <nico.schloemer@gmail.com>
% All rights reserved.
% 
% 
% 
\begin{tikzpicture}

\begin{axis}[%
width=\figurewidth,
height=\figureheight,
unbounded coords=jump,
scale only axis,
xmin=0,
xmax=20,
xlabel={Kd},
ymin=0,
ymax=0.7,
ylabel={Absolute Fresnel}
]
\addplot [
color=blue,
solid,
forget plot
]
table[row sep=crcr]{
0.0184799567858223 0.00382631544209021\\
0.0369599135716446 0.00542910093213799\\
0.0554398703574669 0.00673775039848923\\
0.0739198271432892 0.00802124106086332\\
0.0923997839291116 0.00946866896627445\\
0.110879740714934 0.0112511766009264\\
0.129359697500756 0.0135227432345462\\
0.147839654286578 0.0164130335383154\\
0.166319611072401 0.0200265892553519\\
0.184799567858223 0.0244485483393432\\
0.203279524644045 0.029751910163386\\
0.221759481429868 0.0360028185567013\\
0.24023943821569 0.0432630619357216\\
0.258719395001512 0.0515903452263363\\
0.277199351787335 0.0610370883881743\\
0.295679308573157 0.0716483031580363\\
0.314159265358979 0.0834588791446603\\
0.332639222144802 0.0964904686418923\\
0.351119178930624 0.110748088280629\\
0.369599135716446 0.126216529461134\\
0.388079092502269 0.1428566690421\\
0.406559049288091 0.160601785431874\\
0.425039006073913 0.179354006545575\\
0.443518962859736 0.198981041280588\\
0.461998919645558 0.219313372678417\\
0.48047887643138 0.240142116674496\\
0.498958833217202 0.261217773211937\\
0.517438790003025 0.282250114280809\\
0.535918746788847 0.302909463707507\\
0.554398703574669 0.322829623659455\\
0.572878660360492 0.341612690198994\\
0.591358617146314 0.358835972311994\\
0.609838573932136 0.374061179323163\\
0.628318530717959 0.386846007112756\\
0.646798487503781 0.39675808444122\\
0.665278444289603 0.403391284178189\\
0.683758401075426 0.406384155178952\\
0.702238357861248 0.405440199287461\\
0.72071831464707 0.400349609944633\\
0.739198271432893 0.391011994973804\\
0.757678228218715 0.377459689630938\\
0.776158185004537 0.359881402990258\\
0.794638141790359 0.338646195629169\\
0.813118098576182 0.314328618147872\\
0.831598055362004 0.287736350646508\\
0.850078012147826 0.259941995755691\\
0.868557968933649 0.232317425718743\\
0.887037925719471 0.206554458153206\\
0.905517882505293 0.184613457801064\\
0.923997839291116 0.168468081344809\\
0.942477796076938 0.15951625809282\\
0.96095775286276 0.157860885707063\\
0.979437709648583 0.162138341429545\\
0.997917666434405 0.170201692635812\\
1.01639762322023 0.180023811720782\\
1.03487758000605 0.190185193206557\\
1.05335753679187 0.199925399023382\\
1.07183749357769 0.208974726498842\\
1.09031745036352 0.217312087353358\\
1.10879740714934 0.224921160432403\\
1.12727736393516 0.231598985193364\\
1.14575732072098 0.236867682701574\\
1.16423727750681 0.240020641449604\\
1.18271723429263 0.240302985559566\\
1.20119719107845 0.237204062652979\\
1.21967714786427 0.230837495844013\\
1.23815710465009 0.22238175040427\\
1.25663706143592 0.214482508320542\\
1.27511701822174 0.211256236011118\\
1.29359697500756 0.217183279874337\\
1.31207693179338 0.234775403980114\\
1.33055688857921 0.262914049122745\\
1.34903684536503 0.297593144506098\\
1.36751680215085 0.333800972361545\\
1.38599675893667 0.366828928223334\\
1.4044767157225 0.392868196113297\\
1.42295667250832 0.409311352040042\\
1.44143662929414 0.414985153328016\\
1.45991658607996 0.410352382399345\\
1.47839654286579 0.397631508917172\\
1.49687649965161 0.38070931816\\
1.51535645643743 0.364614467038606\\
1.53383641322325 0.354282131489224\\
1.55231637000907 0.35274925663765\\
1.5707963267949 0.359866858913564\\
1.58927628358072 0.372770951315964\\
1.60775624036654 0.387779745886321\\
1.62623619715236 0.402196736008818\\
1.64471615393819 0.415089618010762\\
1.66319611072401 0.427025115744317\\
1.68167606750983 0.439101908929416\\
1.70015602429565 0.451800569646848\\
1.71863598108147 0.464293723882626\\
1.7371159378673 0.474647740134476\\
1.75559589465312 0.480799581731607\\
1.77407585143894 0.481764299110495\\
1.79255580822476 0.478473190837059\\
1.81103576501059 0.473775175497412\\
1.82951572179641 0.471339499608378\\
1.84799567858223 0.473717284788492\\
1.86647563536805 0.480687178379689\\
1.88495559215388 0.489241242469087\\
1.9034355489397 0.495335870583182\\
1.92191550572552 0.496151399962414\\
1.94039546251134 0.491540609976269\\
1.95887541929717 0.484012957155481\\
1.97735537608299 0.477186557507456\\
1.99583533286881 0.473399672690036\\
2.01431528965463 0.472140868746105\\
2.03279524644045 0.470817973331461\\
2.05127520322628 0.467498316647411\\
2.0697551600121 0.463570548788541\\
2.08823511679792 0.464168498093609\\
2.10671507358374 0.475145300697116\\
2.12519503036957 0.498024495222565\\
2.14367498715539 0.527586804777145\\
2.16215494394121 0.554688235946794\\
2.18063490072703 0.571319631456574\\
2.19911485751286 0.574229311539815\\
2.21759481429868 0.565960864656581\\
2.2360747710845 0.553331793238548\\
2.25455472787032 0.54379150026298\\
2.27303468465614 0.541431953553101\\
2.29151464144197 0.545672817272209\\
2.30999459822779 0.553614761531648\\
2.32847455501361 0.563139458289516\\
2.34695451179943 0.573540054589651\\
2.36543446858526 0.583786482700059\\
2.38391442537108 0.591220036282163\\
2.4023943821569 0.59292615290762\\
2.42087433894272 0.589008875506299\\
2.43935429572855 0.5845912066114\\
2.45783425251437 0.58739546703951\\
2.47631420930019 0.601082790220548\\
2.49479416608601 0.620429022995067\\
2.51327412287183 0.634313318545604\\
2.53175407965766 0.633644840574172\\
2.55023403644348 0.617346451439618\\
2.5687139932293 0.593012387312254\\
2.58719395001512 0.572001344943061\\
2.60567390680095 0.561697278297201\\
2.62415386358677 0.561698636935256\\
2.64263382037259 0.567934842269323\\
2.66111377715841 0.578584098030287\\
2.67959373394424 0.594106610126796\\
2.69807369073006 0.612670262239527\\
2.71655364751588 0.628378441205809\\
2.7350336043017 0.635478673702327\\
2.75351356108752 0.633738141643306\\
2.77199351787335 0.628827065026104\\
2.79047347465917 0.626612365764662\\
2.80895343144499 0.627230626845914\\
2.82743338823081 0.626400645139654\\
2.84591334501664 0.622412705971181\\
2.86439330180246 0.61948761375059\\
2.88287325858828 0.622671754979899\\
2.9013532153741 0.630608586048375\\
2.91983317215993 0.636813445373026\\
2.93831312894575 0.638498549164741\\
2.95679308573157 0.640949276731787\\
2.97527304251739 0.65052016408836\\
2.99375299930321 0.664037460066627\\
3.01223295608904 0.669491176218304\\
3.03071291287486 0.657992560309351\\
3.04919286966068 0.632889974638755\\
3.0676728264465 0.607417943640152\\
3.08615278323233 0.593559072952449\\
3.10463274001815 0.593938268330858\\
3.12311269680397 0.605016303905172\\
3.14159265358979 0.622530051108519\\
3.16007261037562 0.640200685133953\\
3.17855256716144 0.649179901437255\\
3.19703252394726 0.645169659623809\\
3.21551248073308 0.635257829990578\\
3.2339924375189 0.632261828542369\\
3.25247239430473 0.638945512619594\\
3.27095235109055 0.643918925087947\\
3.28943230787637 0.637297490222967\\
3.30791226466219 0.623999592408424\\
3.32639222144802 0.617637474948847\\
3.34487217823384 0.623468839610803\\
3.36335213501966 0.634602429751002\\
3.38183209180548 0.644332943438729\\
3.40031204859131 0.651472779428065\\
3.41879200537713 0.653342164801224\\
3.43727196216295 0.643998486322709\\
3.45575191894877 0.623791048416608\\
3.4742318757346 0.603983767149994\\
3.49271183252042 0.59513586326295\\
3.51119178930624 0.595229054301282\\
3.52967174609206 0.597764097362969\\
3.54815170287788 0.603413675000124\\
3.56663165966371 0.613214902433509\\
3.58511161644953 0.619226016843989\\
3.60359157323535 0.614588416578151\\
3.62207153002117 0.606669697205047\\
3.640551486807 0.607521896143716\\
3.65903144359282 0.613781661646457\\
3.67751140037864 0.611820943477369\\
3.69599135716446 0.599866526780551\\
3.71447131395028 0.590143805211954\\
3.73295127073611 0.590596631093183\\
3.75143122752193 0.59760506010806\\
3.76991118430775 0.605919949615918\\
3.78839114109357 0.610345488595607\\
3.8068710978794 0.60229782685505\\
3.82535105466522 0.580736000482316\\
3.84383101145104 0.562052997133555\\
3.86231096823686 0.561372001225458\\
3.88079092502269 0.568601104031815\\
3.89927088180851 0.566311840268033\\
3.91775083859433 0.557060240368559\\
3.93623079538015 0.553767262652736\\
3.95471075216597 0.557067385384875\\
3.9731907089518 0.560845384746639\\
3.99167066573762 0.564960361271945\\
4.01015062252344 0.566850235298561\\
4.02863057930926 0.559432908719843\\
4.04711053609509 0.546587869222103\\
4.06559049288091 0.540831391963743\\
4.08407044966673 0.541795966946507\\
4.10255040645255 0.54035920553723\\
4.12103036323838 0.538151275899031\\
4.1395103200242 0.538067213426903\\
4.15799027681002 0.531633249763139\\
4.17647023359584 0.517762858690633\\
4.19495019038166 0.51075069369787\\
4.21343014716749 0.512415556864984\\
4.23191010395331 0.507137830209431\\
4.25039006073913 0.4931547718691\\
4.26887001752495 0.485078766279449\\
4.28734997431078 0.488485009695398\\
4.3058299310966 0.498652275593767\\
4.32430988788242 0.509307393128187\\
4.34278984466824 0.507883230185688\\
4.36126980145407 0.489525995724563\\
4.37974975823989 0.473372574250387\\
4.39822971502571 0.474002411396967\\
4.41670967181153 0.475606711943881\\
4.43518962859735 0.467240737228092\\
4.45366958538318 0.460611997035121\\
4.472149542169 0.460255533828364\\
4.49062949895482 0.458705113105727\\
4.50910945574064 0.454561238148148\\
4.52758941252647 0.444543811504646\\
4.54606936931229 0.426021245342099\\
4.56454932609811 0.414336316285806\\
4.58302928288393 0.419974775307976\\
4.60150923966976 0.429236913917815\\
4.61998919645558 0.434879340373642\\
4.6384691532414 0.437519574065153\\
4.65694911002722 0.427758316819933\\
4.67542906681305 0.408846772645445\\
4.69390902359887 0.400615642034608\\
4.71238898038469 0.400724563283522\\
4.73086893717051 0.395279349978728\\
4.74934889395633 0.389808062165848\\
4.76782885074216 0.388838403768155\\
4.78630880752798 0.387513284373951\\
4.8047887643138 0.383710386243525\\
4.82326872109962 0.369156038136403\\
4.84174867788545 0.346482746892549\\
4.86022863467127 0.343732159428104\\
4.87870859145709 0.360648488315839\\
4.89718854824291 0.367173478663261\\
4.91566850502874 0.36113094160561\\
4.93414846181456 0.353430583815777\\
4.95262841860038 0.344382143862101\\
4.9711083753862 0.337837761200582\\
4.98958833217202 0.331348830742672\\
5.00806828895785 0.320491003630548\\
5.02654824574367 0.318125779884318\\
5.04502820252949 0.321840731487736\\
5.06350815931531 0.315964171026696\\
5.08198811610114 0.30634269988904\\
5.10046807288696 0.295816626096118\\
5.11894802967278 0.283200909222099\\
5.1374279864586 0.284898959158337\\
5.15590794324442 0.294573786859669\\
5.17438790003025 0.292853111106695\\
5.19286785681607 0.285672980551586\\
5.21134781360189 0.279517511114714\\
5.22982777038771 0.275975356755696\\
5.24830772717354 0.273282937615093\\
5.26678768395936 0.258590400110543\\
5.28526764074518 0.245256508974436\\
5.303747597531 0.251377488137361\\
5.32222755431683 0.252596667029953\\
5.34070751110265 0.240783182340577\\
5.35918746788847 0.231521336879906\\
5.37766742467429 0.227640158620496\\
5.39614738146012 0.229138068295565\\
5.41462733824594 0.226280769523668\\
5.43310729503176 0.218451788533032\\
5.45158725181758 0.221898357288503\\
5.47006720860341 0.224176984746539\\
5.48854716538923 0.216365523755392\\
5.50702712217505 0.20662467126638\\
5.52550707896087 0.191399303865411\\
5.54398703574669 0.184025099690142\\
5.56246699253252 0.189262829925524\\
5.58094694931834 0.187544604596735\\
5.59942690610416 0.181710542635795\\
5.61790686288998 0.175604390244375\\
5.63638681967581 0.172192075107797\\
5.65486677646163 0.169935704610827\\
5.67334673324745 0.159729197235382\\
5.69182669003327 0.163369752223866\\
5.71030664681909 0.175404758269348\\
5.72878660360492 0.167292353111512\\
5.74726656039074 0.148713588067431\\
5.76574651717656 0.135090334576099\\
5.78422647396238 0.134549264242501\\
5.80270643074821 0.137274051175169\\
5.82118638753403 0.132499814293427\\
5.83966634431985 0.134098004668418\\
5.85814630110567 0.130766228972049\\
5.8766262578915 0.119647069239536\\
5.89510621467732 0.115576954025178\\
5.91358617146314 0.115309440024021\\
5.93206612824896 0.123630552460165\\
5.95054608503478 0.124924119099487\\
5.96902604182061 0.110959240453897\\
5.98750599860643 0.0960024378086288\\
6.00598595539225 0.089221756510048\\
6.02446591217807 0.0949355361287839\\
6.0429458689639 0.0917830645755432\\
6.06142582574972 0.0878852371787761\\
6.07990578253554 0.0931415068484387\\
6.09838573932136 0.0850614404189706\\
6.11686569610719 0.0752798357832064\\
6.13534565289301 0.0773880063545466\\
6.15382560967883 0.086019154301588\\
6.17230556646465 0.0827065620388206\\
6.19078552325047 0.068074860103501\\
6.2092654800363 0.0647522782342837\\
6.22774543682212 0.0594205564662018\\
6.24622539360794 0.0556402790193432\\
6.26470535039376 0.0549250757778697\\
6.28318530717959 0.0564816096161423\\
6.30166526396541 0.0597643371180752\\
6.32014522075123 0.0532530539998954\\
6.33862517753705 0.0485531351958138\\
6.35710513432288 0.0474648987437193\\
6.3755850911087 0.0516115608228683\\
6.39406504789452 0.0459398204446756\\
6.41254500468034 0.0374546768228116\\
6.43102496146616 0.0407459207059154\\
6.44950491825199 0.03225553447999\\
6.46798487503781 0.0234779791042219\\
6.48646483182363 0.0305286499156282\\
6.50494478860945 0.0401200047105248\\
6.52342474539528 0.0340227109429833\\
6.5419047021811 0.0273679129809014\\
6.56038465896692 0.027804011695351\\
6.57886461575274 0.0224092615584523\\
6.59734457253857 0.0231562829359797\\
6.61582452932439 0.0232029892004549\\
6.63430448611021 0.0231269057528166\\
6.65278444289603 0.0131793318791546\\
6.67126439968185 0.00681971909760476\\
6.68974435646768 0.016790325108218\\
6.7082243132535 0.0254742633658923\\
6.72670427003932 0.0216246625915299\\
6.74518422682514 0.011051401412627\\
6.76366418361097 0.0119208871520844\\
6.78214414039679 0.00733912373910613\\
6.80062409718261 0.00845416152818366\\
6.81910405396843 0.0126243842701107\\
6.83758401075425 0.0125439586256268\\
6.85606396754008 0.00752386957138285\\
6.8745439243259 0.0123889787498282\\
6.89302388111172 0.0128344466241976\\
6.91150383789755 0.0117394495265876\\
6.92998379468337 0.00830418087908669\\
6.94846375146919 0.00507208338094994\\
6.96694370825501 0.00333067986729413\\
6.98542366504083 0.00259505051306827\\
7.00390362182666 0.00287586608139945\\
7.02238357861248 0.00283295659493116\\
7.0408635353983 0.00655825488940613\\
7.05934349218412 0.0103977393177235\\
7.07782344896995 0.00859601375149985\\
7.09630340575577 0.00416278353052185\\
7.11478336254159 0.0022736435915248\\
7.13326331932741 0.00383627356713534\\
7.15174327611324 0.0100474931926373\\
7.17022323289906 0.0110142684828464\\
7.18870318968488 0.00256542322709038\\
7.2071831464707 0.00547031770492383\\
7.22566310325652 0.0065578167104749\\
7.24414306004235 0.00530945515038424\\
7.26262301682817 0.00340537563846731\\
7.28110297361399 0.00536203429669799\\
7.29958293039981 0.00340161598200704\\
7.31806288718564 0.0105460605172842\\
7.33654284397146 0.0168883647130325\\
7.35502280075728 0.0195210115775005\\
7.3735027575431 0.00954435541999551\\
7.39198271432893 0.00983479998419624\\
7.41046267111475 0.012575774572626\\
7.42894262790057 0.0128502789174426\\
7.44742258468639 0.0163359903147986\\
7.46590254147221 0.0160852859425079\\
7.48438249825804 0.0104708374348181\\
7.50286245504386 0.0266078635231859\\
7.52134241182968 0.0306465854556014\\
7.5398223686155 0.025574218199273\\
7.55830232540133 0.019894806621021\\
7.57678228218715 0.0210682253825566\\
7.59526223897297 0.0245919549013255\\
7.61374219575879 0.0302366095448217\\
7.63222215254462 0.029584960393674\\
7.65070210933044 0.0261853936174732\\
7.66918206611626 0.0317719287777982\\
7.68766202290208 0.0441979205329833\\
7.7061419796879 0.0433437782821734\\
7.72462193647373 0.0351001337380786\\
7.74310189325955 0.038831701313577\\
7.76158185004537 0.0369869170950026\\
7.78006180683119 0.0437021939534874\\
7.79854176361702 0.0492524574871368\\
7.81702172040284 0.0452148592606889\\
7.83550167718866 0.0478856020094337\\
7.85398163397448 0.0588283247842938\\
7.87246159076031 0.0571856048721798\\
7.89094154754613 0.0588504762918492\\
7.90942150433195 0.0570822948573783\\
7.92790146111777 0.057317900065907\\
7.94638141790359 0.0583261793217773\\
7.96486137468942 0.0682949079318071\\
7.98334133147524 0.0699975981782739\\
8.00182128826106 0.0687583596584508\\
8.02030124504688 0.0767475546324991\\
8.03878120183271 0.0755966266474146\\
8.05726115861853 0.0800809858782673\\
8.07574111540435 0.0835472919494901\\
8.09422107219017 0.0761499891754737\\
8.11270102897599 0.0790016794598218\\
8.13118098576182 0.091527180474364\\
8.14966094254764 0.0928733033686064\\
8.16814089933346 0.0960730326933543\\
8.18662085611928 0.0950632760746763\\
8.20510081290511 0.0979257717064812\\
8.22358076969093 0.105563899883344\\
8.24206072647675 0.106228682669095\\
8.26054068326257 0.0993205701145986\\
8.2790206400484 0.103190061718208\\
8.29750059683422 0.118099297460134\\
8.31598055362004 0.117102697059418\\
8.33446051040586 0.121458937735342\\
8.35294046719168 0.119052133267516\\
8.37142042397751 0.122033090450227\\
8.38990038076333 0.133371978034848\\
8.40838033754915 0.12587579633084\\
8.42686029433497 0.126235373987831\\
8.4453402511208 0.133522131430956\\
8.46382020790662 0.141466418053657\\
8.48230016469244 0.144783684656149\\
8.50078012147826 0.146049692938987\\
8.51926007826409 0.145619233248581\\
8.53774003504991 0.149192571328913\\
8.55621999183573 0.156341854495374\\
8.57469994862155 0.14987583801852\\
8.59317990540737 0.157669193390712\\
8.6116598621932 0.16166659688709\\
8.63013981897902 0.16516524302729\\
8.64861977576484 0.175782597178791\\
8.66709973255066 0.169593480094512\\
8.68557968933649 0.172511264656152\\
8.70405964612231 0.175701695266667\\
8.72253960290813 0.178458052767059\\
8.74101955969395 0.183109628310277\\
8.75949951647978 0.183223786634652\\
8.7779794732656 0.187886073318385\\
8.79645943005142 0.197464292874115\\
8.81493938683724 0.200374382617426\\
8.83341934362307 0.193118644686637\\
8.85189930040889 0.198445023494339\\
8.87037925719471 0.202483755162495\\
8.88885921398053 0.208212568976496\\
8.90733917076635 0.208882379156588\\
8.92581912755218 0.208135095960385\\
8.944299084338 0.222040916499354\\
8.96277904112382 0.223681015214207\\
8.98125899790964 0.218406784922098\\
8.99973895469547 0.220235341820765\\
9.01821891148129 0.225802334574977\\
9.03669886826711 0.231155731371576\\
9.05517882505293 0.233583631897333\\
9.07365878183876 0.231411998583757\\
9.09213873862458 0.244078865243393\\
9.1106186954104 0.245374857824421\\
9.12909865219622 0.241143324772277\\
9.14757860898204 0.24551930325882\\
9.16605856576787 0.244579917616933\\
9.18453852255369 0.255082735233525\\
9.20301847933951 0.255172036626524\\
9.22149843612533 0.256920264646144\\
9.23997839291115 0.263479233411966\\
9.25845834969698 0.264257868036142\\
9.2769383064828 0.265455574783645\\
9.29541826326862 0.266334672386672\\
9.31389822005445 0.264817187758855\\
9.33237817684027 0.275629465099942\\
9.35085813362609 0.278302099499561\\
9.36933809041191 0.27836105305368\\
9.38781804719773 0.28147711562957\\
9.40629800398356 0.282805802948697\\
9.42477796076938 0.288754802301243\\
9.4432579175552 0.281855809694958\\
9.46173787434102 0.286795178460793\\
9.48021783112685 0.294983610224911\\
9.49869778791267 0.298932131904546\\
9.51717774469849 0.296506265017591\\
9.53565770148431 0.297140393649099\\
9.55413765827014 0.304098177735223\\
9.57261761505596 0.303958712938127\\
9.59109757184178 0.297821094799414\\
9.6095775286276 0.308990613561031\\
9.62805748541343 0.311723380091052\\
9.64653744219925 0.315471693778861\\
9.66501739898507 0.312129722162821\\
9.68349735577089 0.313637019451645\\
9.70197731255671 0.3206452706524\\
9.72045726934254 0.31489519981514\\
9.73893722612836 0.318223607246057\\
9.75741718291418 0.324500825578643\\
9.7758971397 0.327235480054584\\
9.79437709648583 0.328502934759803\\
9.81285705327165 0.325544161823794\\
9.83133701005747 0.3291618956243\\
9.84981696684329 0.329283685203897\\
9.86829692362912 0.331558057495647\\
9.88677688041494 0.333602321098222\\
9.90525683720076 0.334545379057858\\
9.92373679398658 0.343675165855084\\
9.9422167507724 0.336386795780844\\
9.96069670755823 0.33640235220992\\
9.97917666434405 0.339468705903754\\
9.99765662112987 0.34267522811013\\
10.0161365779157 0.342215024637663\\
10.0346165347015 0.342335847775189\\
10.0530964914873 0.350991594960216\\
10.0715764482732 0.347525910467853\\
10.090056405059 0.343510420361504\\
10.1085363618448 0.345980784182797\\
10.1270163186306 0.349408448297063\\
10.1454962754164 0.351929218615662\\
10.1639762322023 0.347318595742345\\
10.1824561889881 0.356085546263457\\
10.2009361457739 0.354397750786563\\
10.2194161025597 0.350379646459861\\
10.2378960593456 0.34974664647509\\
10.2563760161314 0.35418710821825\\
10.2748559729172 0.357594219409825\\
10.293335929703 0.352281980017841\\
10.3118158864888 0.359067292958726\\
10.3302958432747 0.356798513411014\\
10.3487758000605 0.355788166579085\\
10.3672557568463 0.352032605349515\\
10.3857357136321 0.356495926648358\\
10.404215670418 0.359541995530249\\
10.4226956272038 0.35723204770042\\
10.4411755839896 0.358198903421212\\
10.4596555407754 0.357553403285068\\
10.4781354975613 0.357808144572988\\
10.4966154543471 0.353270250044773\\
10.5150954111329 0.355230922737617\\
10.5335753679187 0.361300858868402\\
10.5520553247045 0.357329676658628\\
10.5705352814904 0.356615374276171\\
10.5890152382762 0.355310242267513\\
10.607495195062 0.358414750215792\\
10.6259751518478 0.349557965616894\\
10.6444551086337 0.355557814457229\\
10.6629350654195 0.358353061233325\\
10.6814150222053 0.3555220622349\\
10.6998949789911 0.351790966471974\\
10.7183749357769 0.353303945726681\\
10.7368548925628 0.35326229660657\\
10.7553348493486 0.345986012634745\\
10.7738148061344 0.353847276072078\\
10.7922947629202 0.351909237882694\\
10.8107747197061 0.351665331432403\\
10.8292546764919 0.344818961148314\\
10.8477346332777 0.349211213743421\\
10.8662145900635 0.344306428768181\\
10.8846945468493 0.344375257764157\\
10.9031745036352 0.345338346912518\\
10.921654460421 0.346167653884934\\
10.9401344172068 0.344036637499752\\
10.9586143739926 0.336687333254502\\
10.9770943307785 0.340311849787639\\
10.9955742875643 0.337820562067823\\
11.0140542443501 0.338260707780385\\
11.0325342011359 0.333734481495637\\
11.0510141579217 0.340561666681788\\
11.0694941147076 0.331697543107328\\
11.0879740714934 0.32768134960257\\
11.1064540282792 0.329477816710645\\
11.124933985065 0.331389216590496\\
11.1434139418509 0.32539605976116\\
11.1618938986367 0.326393648319375\\
11.1803738554225 0.327130544508803\\
11.1988538122083 0.318605052775021\\
11.2173337689941 0.318003216714968\\
11.23581372578 0.319714419441161\\
11.2542936825658 0.317359661908174\\
11.2727736393516 0.314664416916682\\
11.2912535961374 0.316108183728795\\
11.3097335529233 0.309545665349502\\
11.3282135097091 0.306273365072352\\
11.3466934664949 0.30596304115637\\
11.3651734232807 0.308695773796654\\
11.3836533800665 0.30196304164359\\
11.4021333368524 0.302645646359507\\
11.4206132936382 0.297472648318852\\
11.439093250424 0.298265768861379\\
11.4575732072098 0.289738385700846\\
11.4760531639957 0.294182119105134\\
11.4945331207815 0.292346910126448\\
11.5130130775673 0.288796451088816\\
11.5314930343531 0.283975099559807\\
11.5499729911389 0.284210382280814\\
11.5684529479248 0.277953052367312\\
11.5869329047106 0.277785139878875\\
11.6054128614964 0.280561120007175\\
11.6238928182822 0.274963229860331\\
11.6423727750681 0.267369174816829\\
11.6608527318539 0.271080545025091\\
11.6793326886397 0.264802261694454\\
11.6978126454255 0.262615041682322\\
11.7162926022113 0.263948629426463\\
11.7347725589972 0.260565845733073\\
11.753252515783 0.254501744806347\\
11.7717324725688 0.253329027986511\\
11.7902124293546 0.251409008438483\\
11.8086923861405 0.246491926522664\\
11.8271723429263 0.247122397099887\\
11.8456522997121 0.246254542405934\\
11.8641322564979 0.239738444693963\\
11.8826122132837 0.236248449683695\\
11.9010921700696 0.233965075471094\\
11.9195721268554 0.233246540554308\\
11.9380520836412 0.229954856316539\\
11.956532040427 0.229258326891446\\
11.9750119972129 0.225624234671165\\
11.9934919539987 0.217099382641858\\
12.0119719107845 0.218066397163013\\
12.0304518675703 0.219066761676166\\
12.0489318243561 0.211679598817437\\
12.067411781142 0.213410383165782\\
12.0858917379278 0.207676589150831\\
12.1043716947136 0.201034752845685\\
12.1228516514994 0.201441840591839\\
12.1413316082853 0.202637811037713\\
12.1598115650711 0.195472138386907\\
12.1782915218569 0.195304567368876\\
12.1967714786427 0.190036751230007\\
12.2152514354285 0.185858763602151\\
12.2337313922144 0.183438310329783\\
12.2522113490002 0.186793571435127\\
12.270691305786 0.178384690334815\\
12.2891712625718 0.177538888685476\\
12.3076512193577 0.172472940072643\\
12.3261311761435 0.169934384188708\\
12.3446111329293 0.166652765821188\\
12.3630910897151 0.169540660237224\\
12.3815710465009 0.162363397789768\\
12.4000510032868 0.159250668467518\\
12.4185309600726 0.155397965772008\\
12.4370109168584 0.15409325602492\\
12.4554908736442 0.149991344083166\\
12.4739708304301 0.152343548991164\\
12.4924507872159 0.146993793073587\\
12.5109307440017 0.139812617915763\\
12.5294107007875 0.140814430684309\\
12.5478906575734 0.136383854720425\\
12.5663706143592 0.13473590989995\\
12.584850571145 0.135539275299832\\
12.6033305279308 0.130442525430614\\
12.6218104847166 0.122548793008013\\
12.6402904415025 0.126043117430074\\
12.6587703982883 0.118957970520828\\
12.6772503550741 0.12029411061147\\
12.6957303118599 0.118373056123887\\
12.7142102686458 0.113606008958922\\
12.7326902254316 0.108161246270603\\
12.7511701822174 0.109410505033172\\
12.7696501390032 0.105472287330985\\
12.788130095789 0.103273652073169\\
12.8066100525749 0.103138449027384\\
12.8250900093607 0.0964291997819799\\
12.8435699661465 0.0947286082911206\\
12.8620499229323 0.0945116157250473\\
12.8805298797182 0.0923899865607928\\
12.899009836504 0.0867459788458275\\
12.9174897932898 0.0887812310068475\\
12.9359697500756 0.0795818021712721\\
12.9544497068614 0.0814535496415819\\
12.9729296636473 0.0823246817335992\\
12.9914096204331 0.0761452265281527\\
13.0098895772189 0.0761117099355148\\
13.0283695340047 0.0715056662039185\\
13.0468494907906 0.0673679925627985\\
13.0653294475764 0.0683764625092611\\
13.0838094043622 0.0684774810388742\\
13.102289361148 0.0619917121617192\\
13.1207693179338 0.0635998418745747\\
13.1392492747197 0.0577672590888388\\
13.1577292315055 0.0568206692345742\\
13.1762091882913 0.0578773483257136\\
13.1946891450771 0.0536746874163149\\
13.213169101863 0.0508355638792619\\
13.2316490586488 0.0480257065044749\\
13.2501290154346 0.0484165020893549\\
13.2686089722204 0.0444918990912492\\
13.2870889290062 0.0485975237734339\\
13.3055688857921 0.0418917322409533\\
13.3240488425779 0.0383020913385873\\
13.3425287993637 0.0412706426781969\\
13.3610087561495 0.0345163454655526\\
13.3794887129354 0.0377119543030061\\
13.3979686697212 0.0353742427831598\\
13.416448626507 0.0296271628040481\\
13.4349285832928 0.0306332510730662\\
13.4534085400786 0.0310341548659833\\
13.4718884968645 0.0279731226328081\\
13.4903684536503 0.0287432022398919\\
13.5088484104361 0.0258007376231996\\
13.5273283672219 0.0206253911661675\\
13.5458083240078 0.0243676369918769\\
13.5642882807936 0.0214926139966785\\
13.5827682375794 0.0200677600389063\\
13.6012481943652 0.0191605499974469\\
13.619728151151 0.0154955186087695\\
13.6382081079369 0.0169540342954972\\
13.6566880647227 0.0167963688605677\\
13.6751680215085 0.0159604162671733\\
13.6936479782943 0.0137911844978502\\
13.7121279350802 0.0124528232255122\\
13.730607891866 0.0109065985757986\\
13.7490878486518 0.0132931131867901\\
13.7675678054376 0.011016611684072\\
13.7860477622234 0.00728351191684135\\
13.8045277190093 0.00967647577790628\\
13.8230076757951 0.00497847972272497\\
13.8414876325809 0.0079770409780871\\
13.8599675893667 0.00914836023373092\\
13.8784475461526 0.00248062118222809\\
13.8969275029384 0.00583596017695412\\
13.9154074597242 0.00385981940998181\\
13.93388741651 0.00479353519667182\\
13.9523673732958 0.00613320018499194\\
13.9708473300817 0.00218469021740673\\
13.9893272868675 0.00315269383191377\\
14.0078072436533 0.00333181588473773\\
14.0262872004391 0.00172910503903534\\
14.044767157225 0.00471814587473085\\
14.0632471140108 0.00166032112671707\\
14.0817270707966 0.00180326368408462\\
14.1002070275824 0.00323520170422053\\
14.1186869843682 0.00155258784263547\\
14.1371669411541 0.00214648889255482\\
14.1556468979399 0.0038705846267687\\
14.1741268547257 0.00306498530326655\\
14.1926068115115 0.00259608070043535\\
14.2110867682974 0.00459510744405376\\
14.2295667250832 0.000410461879818872\\
14.248046681869 0.00425321296508809\\
14.2665266386548 0.00495674067373624\\
14.2850065954406 0.0013266602276179\\
14.3034865522265 0.00512301544696466\\
14.3219665090123 0.00358433104345296\\
14.3404464657981 0.00641383469489713\\
14.3589264225839 0.00618578375757535\\
14.3774063793698 0.00353886579082993\\
14.3958863361556 0.00680369062012441\\
14.4143662929414 0.00856367320378995\\
14.4328462497272 0.0074358755819894\\
14.451326206513 0.00900948388038977\\
14.4698061632989 0.00786211050522129\\
14.4882861200847 0.00976087249146713\\
14.5067660768705 0.0127580243543217\\
14.5252460336563 0.0105947110794085\\
14.5437259904422 0.0142272371323852\\
14.562205947228 0.0113987002264586\\
14.5806859040138 0.0134989343149636\\
14.5991658607996 0.0185182857680918\\
14.6176458175854 0.0150922366869746\\
14.6361257743713 0.0183609349584234\\
14.6546057311571 0.0166368734705653\\
14.6730856879429 0.0198856971549635\\
14.6915656447287 0.0240657738422956\\
14.7100456015146 0.020410252372918\\
14.7285255583004 0.0229710736388096\\
14.7470055150862 0.0250721708636146\\
14.765485471872 0.025580515032067\\
14.7839654286579 0.0296028900660514\\
14.8024453854437 0.0278650944213377\\
14.8209253422295 0.0286395420882411\\
14.8394052990153 0.0338565294337619\\
14.8578852558011 0.0310138623210819\\
14.876365212587 0.0371805583396309\\
14.8948451693728 0.0357842844600422\\
14.9133251261586 0.0350671844365815\\
14.9318050829444 0.0418436773532792\\
14.9502850397303 0.0392811648591656\\
14.9687649965161 0.0446789190623625\\
14.9872449533019 0.0432891342212433\\
15.0057249100877 0.0434245630236871\\
15.0242048668735 0.0496690071578097\\
15.0426848236594 0.0497916292007357\\
15.0611647804452 0.0506536574574649\\
15.079644737231 0.0519761263498701\\
15.0981246940168 0.0534515145412137\\
15.1166046508027 0.0580691185488235\\
15.1350846075885 0.0591777453850492\\
15.1535645643743 0.0583645152454045\\
15.1720445211601 0.061453285532611\\
15.1905244779459 0.0640107057564949\\
15.2090044347318 0.0678436361614689\\
15.2274843915176 0.0663373542796033\\
15.2459643483034 0.0699876253490564\\
15.2644443050892 0.0705290589283649\\
15.2829242618751 0.0747918436708719\\
15.3014042186609 0.0781143414475188\\
15.3198841754467 0.0746171532434886\\
15.3383641322325 0.0817927740252511\\
15.3568440890183 0.0814875386741789\\
15.3753240458042 0.0850120960458888\\
15.39380400259 0.0880644727976137\\
15.4122839593758 0.0866103148563794\\
15.4307639161616 0.0912498178840769\\
15.4492438729475 0.094590841533282\\
15.4677238297333 0.0950708452932006\\
15.4862037865191 0.0980556323793318\\
15.5046837433049 0.0988911756396613\\
15.5231637000907 0.102581909633888\\
15.5416436568766 0.10463412253813\\
15.5601236136624 0.107129028115003\\
15.5786035704482 0.107903107092871\\
15.597083527234 0.109205607689069\\
15.6155634840199 0.116037385077955\\
15.6340434408057 0.112886222454141\\
15.6525233975915 0.118636348988617\\
15.6710033543773 0.118537465384537\\
15.6894833111631 0.121038638811045\\
15.707963267949 0.126058310093613\\
15.7264432247348 0.125725231445355\\
15.7449231815206 0.127976847736628\\
15.7634031383064 0.130650152536945\\
15.7818830950923 0.13499947684906\\
15.8003630518781 0.135957872938779\\
15.8188430086639 0.13739072199732\\
15.8373229654497 0.141130162128235\\
15.8558029222355 0.141741857711153\\
15.8742828790214 0.147195239724224\\
15.8927628358072 0.147952990926024\\
15.911242792593 0.14652201207849\\
15.9297227493788 0.153337193461222\\
15.9482027061647 0.153736657928176\\
15.9666826629505 0.157735933082538\\
15.9851626197363 0.156132178769271\\
16.0036425765221 0.161107791416615\\
16.0221225333079 0.162237534142761\\
16.0406024900938 0.166695160515693\\
16.0590824468796 0.169057763665361\\
16.0775624036654 0.167010250841669\\
16.0960423604512 0.172819468846389\\
16.1145223172371 0.175895327182442\\
16.1330022740229 0.176959778478189\\
16.1514822308087 0.17810220806081\\
16.1699621875945 0.179848423836896\\
16.1884421443803 0.183740811165543\\
16.2069221011662 0.18412415242662\\
16.225402057952 0.188806310894631\\
16.2438820147378 0.187705407272346\\
16.2623619715236 0.191025335014779\\
16.2808419283095 0.195694802438567\\
16.2993218850953 0.194988667965581\\
16.3178018418811 0.198041870139091\\
16.3362817986669 0.199147620164132\\
16.3547617554527 0.204789409876169\\
16.3732417122386 0.201541901074126\\
16.3917216690244 0.205656106905487\\
16.4102016258102 0.20749023986025\\
16.428681582596 0.210060927045271\\
16.4471615393819 0.212760274329789\\
16.4656414961677 0.213209660040513\\
16.4841214529535 0.215066247687714\\
16.5026014097393 0.216963180676512\\
16.5210813665251 0.221660227337534\\
16.539561323311 0.221435707135641\\
16.5580412800968 0.220347588216437\\
16.5765212368826 0.225769885729467\\
16.5950011936684 0.226039658065873\\
16.6134811504543 0.22916682400526\\
16.6319611072401 0.227667640716612\\
16.6504410640259 0.234552820563111\\
16.6689210208117 0.232690118863794\\
16.6874009775975 0.235420379804733\\
16.7058809343834 0.23540188264888\\
16.7243608911692 0.237799882680777\\
16.742840847955 0.239918842265549\\
16.7613208047408 0.241765429178067\\
16.7798007615267 0.243477387312107\\
16.7982807183125 0.242255540858941\\
16.8167606750983 0.246276631507275\\
16.8352406318841 0.248398780157761\\
16.8537205886699 0.247882344577335\\
16.8722005454558 0.248747088798849\\
16.8906805022416 0.250910955521827\\
16.9091604590274 0.25483478326795\\
16.9276404158132 0.250994916367605\\
16.9461203725991 0.255437574111355\\
16.9646003293849 0.255767258689132\\
16.9830802861707 0.259952272728658\\
17.0015602429565 0.256049843071071\\
17.0200401997424 0.259689478841193\\
17.0385201565282 0.260129653496793\\
17.057000113314 0.262101818194195\\
17.0754800700998 0.262404393087477\\
17.0939600268856 0.263456961961135\\
17.1124399836715 0.265343805966905\\
17.1309199404573 0.264610242758137\\
17.1493998972431 0.267030223034558\\
17.1678798540289 0.265783042366814\\
17.1863598108147 0.267923851448594\\
17.2048397676006 0.26848314243956\\
17.2233197243864 0.270796833995771\\
17.2417996811722 0.26969823968016\\
17.260279637958 0.269424738772411\\
17.2787595947439 0.272108719528532\\
17.2972395515297 0.272239873306685\\
17.3157195083155 0.272407198874364\\
17.3341994651013 0.27083473135225\\
17.3526794218872 0.27518759619776\\
17.371159378673 0.274219760895122\\
17.3896393354588 0.274072689067999\\
17.4081192922446 0.273145493834991\\
17.4265992490304 0.276475703770457\\
17.4450792058163 0.275994791287685\\
17.4635591626021 0.273468611024544\\
17.4820391193879 0.274899254594328\\
17.5005190761737 0.276572739593172\\
17.5189990329596 0.278492850919584\\
17.5374789897454 0.273970764645566\\
17.5559589465312 0.276761932014774\\
17.574438903317 0.275740467900085\\
17.5929188601028 0.277842159444032\\
17.6113988168887 0.273013428969832\\
17.6298787736745 0.276939965059016\\
17.6483587304603 0.276624579964142\\
17.6668386872461 0.277532837136376\\
17.685318644032 0.273409484986037\\
17.7037986008178 0.275359579975376\\
17.7222785576036 0.276606664586144\\
17.7407585143894 0.27508832987401\\
17.7592384711752 0.272976122731152\\
17.7777184279611 0.272503063960918\\
17.7961983847469 0.276079777549999\\
17.8146783415327 0.272949672079069\\
17.8331582983185 0.273088450282231\\
17.8516382551044 0.270742295530573\\
17.8701182118902 0.274581606892857\\
17.888598168676 0.269795074746205\\
17.9070781254618 0.27024238044172\\
17.9255580822476 0.26807163778108\\
17.9440380390335 0.271604104983315\\
17.9625179958193 0.267458399739676\\
17.9809979526051 0.266992300185364\\
17.9994779093909 0.266396687012417\\
18.0179578661768 0.268454804233597\\
18.0364378229626 0.265512630465792\\
18.0549177797484 0.262628855371903\\
18.0733977365342 0.262996233894881\\
18.09187769332 0.263324633820357\\
18.1103576501059 0.262052798622931\\
18.1288376068917 0.258176045022241\\
18.1473175636775 0.259220372429863\\
18.1657975204633 0.258842147705923\\
18.1842774772492 0.25854270757299\\
18.202757434035 0.254840591346542\\
18.2212373908208 0.255032347507625\\
18.2397173476066 0.253732636197725\\
18.2581973043924 0.253176221849807\\
18.2766772611783 0.250163644396835\\
18.2951572179641 0.249660155075769\\
18.3136371747499 0.247392234106492\\
18.3321171315357 0.247354424098969\\
18.3505970883216 0.245144086180403\\
18.3690770451074 0.245351389155141\\
18.3875570018932 0.241293470330528\\
18.406036958679 0.242084647020187\\
18.4245169154648 0.239652760688263\\
18.4429968722507 0.240749708870177\\
18.4614768290365 0.234543682832868\\
18.4799567858223 0.235305923543163\\
};
\end{axis}
\end{tikzpicture}%